#format table ## [Custom WaveView] saved 22:50:32 Tue Apr 23 2024
XVAL ,v(/a) ,v(/b) ,v(/c) ,v(/d) ,v(/f) ,v(/vdd!) 
 0.000E+00 , 0.000E+00 , 0.000E+00 , 0.000E+00 , 0.000E+00 , 3.155E-09 , 1.800E+00 
 5.100E-09 ,-1.786E-17 ,-6.295E-17 ,-6.562E-17 ,-2.051E-17 , 3.440E-09 , 1.800E+00 
 5.105E-09 , 3.579E-02 , 6.186E-04 , 1.303E-04 , 3.940E-05 , 3.178E-06 , 1.800E+00 
 5.109E-09 , 8.060E-02 , 1.066E-03 , 2.564E-04 , 7.895E-05 , 7.361E-06 , 1.800E+00 
 5.115E-09 , 1.476E-01 , 1.237E-03 , 3.783E-04 , 1.213E-04 , 1.434E-05 , 1.800E+00 
 5.125E-09 , 2.653E-01 , 9.739E-04 , 4.684E-04 , 1.638E-04 , 2.596E-05 , 1.800E+00 
 5.135E-09 , 3.799E-01 , 7.058E-04 , 4.791E-04 , 1.815E-04 , 3.706E-05 , 1.800E+00 
 5.147E-09 , 5.237E-01 , 5.877E-04 , 4.556E-04 , 1.840E-04 , 4.921E-05 , 1.800E+00 
 5.171E-09 , 8.112E-01 , 5.811E-04 , 3.610E-04 , 1.177E-04 , 6.865E-05 , 1.800E+00 
 5.189E-09 , 1.038E+00 , 6.786E-04 , 3.498E-04 , 8.289E-05 , 8.206E-05 , 1.800E+00 
 5.204E-09 , 1.218E+00 , 6.463E-04 , 3.690E-04 , 9.594E-05 , 9.258E-05 , 1.800E+00 
 5.224E-09 , 1.454E+00 , 1.571E-04 , 2.658E-04 , 9.316E-05 , 9.850E-05 , 1.800E+00 
 5.250E-09 , 1.772E+00 ,-8.240E-05 , 9.733E-05 , 5.121E-05 , 9.412E-05 , 1.800E+00 
 5.265E-09 , 1.796E+00 ,-6.159E-04 ,-1.444E-04 ,-3.966E-05 , 7.749E-05 , 1.800E+00 
 5.280E-09 , 1.801E+00 ,-6.916E-04 ,-2.735E-04 ,-8.753E-05 , 5.932E-05 , 1.800E+00 
 5.296E-09 , 1.800E+00 ,-5.369E-04 ,-3.112E-04 ,-1.055E-04 , 3.987E-05 , 1.800E+00 
 5.316E-09 , 1.800E+00 ,-3.948E-04 ,-2.940E-04 ,-1.070E-04 , 1.838E-05 , 1.800E+00 
 5.346E-09 , 1.800E+00 ,-3.082E-04 ,-2.344E-04 ,-8.998E-05 ,-5.554E-06 , 1.800E+00 
 5.406E-09 , 1.800E+00 ,-1.998E-04 ,-1.339E-04 ,-5.052E-05 ,-3.033E-05 , 1.800E+00 
 5.503E-09 , 1.800E+00 ,-8.627E-05 ,-5.630E-05 ,-1.968E-05 ,-3.657E-05 , 1.800E+00 
 5.657E-09 , 1.800E+00 ,-2.031E-05 ,-1.606E-05 ,-5.866E-06 ,-2.193E-05 , 1.800E+00 
 5.865E-09 , 1.800E+00 ,-5.187E-06 ,-4.520E-06 ,-1.875E-06 ,-4.891E-06 , 1.800E+00 
 6.135E-09 , 1.800E+00 ,-4.572E-06 ,-3.354E-06 ,-1.527E-06 , 1.415E-06 , 1.800E+00 
 6.585E-09 , 1.800E+00 ,-3.547E-06 ,-2.321E-06 ,-9.478E-07 ,-2.421E-07 , 1.800E+00 
 7.396E-09 , 1.800E+00 ,-5.858E-07 ,-4.579E-07 ,-1.756E-07 ,-2.030E-06 , 1.800E+00 
 9.019E-09 , 1.800E+00 , 3.551E-07 , 2.619E-07 ,-4.562E-08 ,-3.899E-07 , 1.800E+00 
 1.010E-08 , 1.800E+00 , 1.488E-07 , 1.100E-07 , 4.095E-08 ,-6.894E-08 , 1.800E+00 
 1.011E-08 , 1.657E+00 , 1.385E-01 , 9.827E-04 , 2.693E-04 , 5.075E-05 , 1.800E+00 
 1.013E-08 , 1.495E+00 , 2.991E-01 , 1.377E-03 , 4.322E-04 , 1.016E-04 , 1.800E+00 
 1.014E-08 , 1.319E+00 , 4.753E-01 , 1.247E-03 , 4.538E-04 , 1.445E-04 , 1.800E+00 
 1.016E-08 , 1.122E+00 , 6.746E-01 , 8.564E-04 , 3.607E-04 , 1.724E-04 , 1.800E+00 
 1.018E-08 , 8.576E-01 , 9.415E-01 , 4.198E-04 , 2.011E-04 , 1.816E-04 , 1.800E+00 
 1.021E-08 , 5.716E-01 , 1.231E+00 , 1.366E-04 , 7.791E-05 , 1.694E-04 , 1.800E+00 
 1.023E-08 , 3.350E-01 , 1.471E+00 ,-1.998E-04 ,-4.251E-05 , 1.414E-04 , 1.800E+00 
 1.024E-08 , 1.700E-01 , 1.638E+00 ,-3.139E-04 ,-9.589E-05 , 1.182E-04 , 1.800E+00 
 1.025E-08 , 3.602E-02 , 1.772E+00 ,-3.243E-04 ,-1.122E-04 , 9.936E-05 , 1.800E+00 
 1.026E-08 , 1.057E-02 , 1.793E+00 ,-6.499E-04 ,-2.095E-04 , 7.685E-05 , 1.800E+00 
 1.027E-08 , 1.147E-03 , 1.800E+00 ,-8.216E-04 ,-2.690E-04 , 5.434E-05 , 1.800E+00 
 1.027E-08 ,-1.879E-04 , 1.800E+00 ,-8.179E-04 ,-2.837E-04 , 3.102E-05 , 1.800E+00 
 1.029E-08 , 4.302E-04 , 1.800E+00 ,-6.984E-04 ,-2.630E-04 , 5.014E-06 , 1.800E+00 
 1.030E-08 , 3.922E-04 , 1.800E+00 ,-5.733E-04 ,-2.253E-04 ,-1.865E-05 , 1.800E+00 
 1.033E-08 , 2.127E-05 , 1.800E+00 ,-4.020E-04 ,-1.563E-04 ,-4.958E-05 , 1.800E+00 
 1.037E-08 ,-3.246E-05 , 1.800E+00 ,-2.262E-04 ,-8.501E-05 ,-7.047E-05 , 1.800E+00 
 1.043E-08 , 1.686E-05 , 1.800E+00 ,-9.932E-05 ,-3.766E-05 ,-7.012E-05 , 1.800E+00 
 1.053E-08 , 1.047E-05 , 1.800E+00 ,-2.580E-05 ,-1.029E-05 ,-4.770E-05 , 1.800E+00 
 1.067E-08 ,-6.465E-07 , 1.800E+00 ,-7.223E-06 ,-2.846E-06 ,-2.043E-05 , 1.800E+00 
 1.085E-08 ,-7.295E-07 , 1.800E+00 ,-6.070E-06 ,-2.392E-06 ,-4.052E-06 , 1.800E+00 
 1.115E-08 , 2.464E-07 , 1.800E+00 ,-4.172E-06 ,-1.644E-06 , 1.055E-08 , 1.800E+00 
 1.171E-08 , 2.084E-07 , 1.800E+00 ,-6.087E-07 ,-2.392E-07 ,-2.829E-06 , 1.800E+00 
 1.283E-08 , 1.324E-07 , 1.800E+00 , 4.092E-07 ,-1.711E-07 ,-2.335E-06 , 1.800E+00 
 1.483E-08 ,-3.146E-09 , 1.800E+00 ,-5.361E-08 ,-4.931E-08 , 8.458E-08 , 1.800E+00 
 1.510E-08 ,-2.568E-09 , 1.800E+00 ,-1.166E-07 ,-4.487E-08 , 8.041E-08 , 1.800E+00 
 1.511E-08 , 1.337E-01 , 1.800E+00 , 8.839E-06 , 7.841E-06 , 8.020E-08 , 1.800E+00 
 1.513E-08 , 2.909E-01 , 1.800E+00 , 5.536E-06 , 5.973E-06 , 7.999E-08 , 1.800E+00 
 1.514E-08 , 4.988E-01 , 1.800E+00 , 1.352E-06 , 2.094E-06 , 7.973E-08 , 1.800E+00 
 1.516E-08 , 7.194E-01 , 1.800E+00 , 2.997E-06 , 2.981E-06 , 7.945E-08 , 1.800E+00 
 1.518E-08 , 9.669E-01 , 1.800E+00 , 7.675E-07 , 5.203E-07 , 7.913E-08 , 1.800E+00 
 1.520E-08 , 1.201E+00 , 1.801E+00 ,-1.320E-06 ,-1.784E-06 , 7.884E-08 , 1.800E+00 
 1.522E-08 , 1.436E+00 , 1.801E+00 ,-2.449E-06 ,-1.537E-06 , 7.854E-08 , 1.800E+00 
 1.524E-08 , 1.677E+00 , 1.801E+00 ,-1.579E-06 ,-1.281E-06 , 7.824E-08 , 1.800E+00 
 1.525E-08 , 1.773E+00 , 1.801E+00 ,-1.232E-06 ,-9.501E-07 , 7.811E-08 , 1.800E+00 
 1.525E-08 , 1.790E+00 , 1.800E+00 ,-1.389E-05 ,-1.217E-05 , 7.805E-08 , 1.800E+00 
 1.526E-08 , 1.798E+00 , 1.800E+00 ,-1.926E-05 ,-1.738E-05 , 7.799E-08 , 1.800E+00 
 1.526E-08 , 1.800E+00 , 1.800E+00 ,-1.389E-05 ,-1.331E-05 , 7.791E-08 , 1.800E+00 
 1.527E-08 , 1.800E+00 , 1.800E+00 ,-1.276E-06 ,-2.063E-06 , 7.778E-08 , 1.800E+00 
 1.528E-08 , 1.800E+00 , 1.800E+00 , 2.308E-06 , 1.784E-06 , 7.764E-08 , 1.800E+00 
 1.529E-08 , 1.800E+00 , 1.800E+00 , 2.725E-07 , 3.294E-07 , 7.744E-08 , 1.800E+00 
 1.532E-08 , 1.800E+00 , 1.800E+00 ,-1.202E-06 ,-1.199E-06 , 7.704E-08 , 1.800E+00 
 1.537E-08 , 1.800E+00 , 1.800E+00 , 1.206E-07 ,-2.924E-08 , 7.628E-08 , 1.800E+00 
 1.547E-08 , 1.800E+00 , 1.800E+00 , 1.039E-07 ,-3.534E-08 , 7.476E-08 , 1.800E+00 
 1.567E-08 , 1.800E+00 , 1.800E+00 , 7.062E-08 ,-4.755E-08 , 7.171E-08 , 1.800E+00 
 1.607E-08 , 1.800E+00 , 1.800E+00 , 4.047E-09 ,-4.330E-08 , 6.562E-08 , 1.800E+00 
 1.845E-08 , 1.800E+00 , 1.800E+00 , 1.358E-09 ,-1.782E-08 , 2.906E-08 , 1.800E+00 
 2.010E-08 , 1.800E+00 , 1.800E+00 ,-4.983E-10 ,-2.265E-10 , 3.827E-09 , 1.800E+00 
 2.011E-08 , 1.730E+00 , 1.730E+00 , 6.634E-02 , 7.319E-04 , 2.373E-05 , 1.800E+00 
 2.012E-08 , 1.645E+00 , 1.645E+00 , 1.485E-01 , 1.095E-03 , 5.282E-05 , 1.800E+00 
 2.012E-08 , 1.543E+00 , 1.543E+00 , 2.497E-01 , 1.015E-03 , 8.551E-05 , 1.800E+00 
 2.014E-08 , 1.393E+00 , 1.393E+00 , 3.994E-01 , 6.485E-04 , 1.271E-04 , 1.800E+00 
 2.015E-08 , 1.258E+00 , 1.259E+00 , 5.346E-01 , 3.833E-04 , 1.476E-04 , 1.800E+00 
 2.016E-08 , 1.137E+00 , 1.138E+00 , 6.566E-01 , 1.982E-04 , 1.436E-04 , 1.800E+00 
 2.017E-08 , 1.009E+00 , 1.009E+00 , 7.861E-01 ,-6.330E-07 , 1.032E-04 , 1.800E+00 
 2.018E-08 , 8.346E-01 , 8.324E-01 , 9.632E-01 ,-1.214E-04 ,-2.376E-05 , 1.800E+00 
 2.019E-08 , 7.086E-01 , 7.052E-01 , 1.092E+00 , 1.698E-04 ,-1.661E-04 , 1.800E+00 
 2.020E-08 , 5.822E-01 , 5.781E-01 , 1.223E+00 , 4.497E-04 ,-3.316E-04 , 1.800E+00 
 2.022E-08 , 4.102E-01 , 4.066E-01 , 1.399E+00 , 3.246E-04 ,-5.332E-04 , 1.800E+00 
 2.023E-08 , 2.381E-01 , 2.354E-01 , 1.572E+00 , 2.699E-04 ,-6.790E-04 , 1.800E+00 
 2.024E-08 , 1.121E-01 , 1.099E-01 , 1.699E+00 , 3.590E-04 ,-7.491E-04 , 1.800E+00 
 2.025E-08 , 3.616E-02 , 3.424E-02 , 1.775E+00 , 4.208E-04 ,-7.780E-04 , 1.800E+00 
 2.025E-08 , 1.588E-02 , 1.479E-02 , 1.793E+00 , 1.222E-04 ,-7.724E-04 , 1.800E+00 
 2.026E-08 , 5.721E-03 , 5.464E-03 , 1.800E+00 ,-1.028E-04 ,-7.564E-04 , 1.800E+00 
 2.026E-08 , 1.763E-03 , 2.347E-03 , 1.802E+00 ,-1.884E-04 ,-7.205E-04 , 1.800E+00 
 2.027E-08 , 1.396E-03 , 2.628E-03 , 1.801E+00 ,-7.206E-05 ,-6.437E-04 , 1.800E+00 
 2.028E-08 , 1.339E-03 , 2.766E-03 , 1.801E+00 , 5.164E-05 ,-5.566E-04 , 1.800E+00 
 2.030E-08 , 9.740E-04 , 2.428E-03 , 1.801E+00 , 1.182E-04 ,-4.321E-04 , 1.800E+00 
 2.031E-08 , 7.219E-04 , 2.063E-03 , 1.801E+00 , 1.257E-04 ,-2.778E-04 , 1.800E+00 
 2.034E-08 , 6.278E-04 , 1.751E-03 , 1.801E+00 , 1.113E-04 ,-1.248E-04 , 1.800E+00 
 2.036E-08 , 5.013E-04 , 1.349E-03 , 1.800E+00 , 8.711E-05 , 1.425E-05 , 1.800E+00 
 2.040E-08 , 3.339E-04 , 8.946E-04 , 1.800E+00 , 5.907E-05 , 1.222E-04 , 1.800E+00 
 2.046E-08 , 1.787E-04 , 4.741E-04 , 1.800E+00 , 3.460E-05 , 1.790E-04 , 1.800E+00 
 2.054E-08 , 7.736E-05 , 1.951E-04 , 1.800E+00 , 1.924E-05 , 1.666E-04 , 1.800E+00 
 2.064E-08 , 2.850E-05 , 6.447E-05 , 1.800E+00 , 1.110E-05 , 1.113E-04 , 1.800E+00 
 2.076E-08 , 1.309E-05 , 2.547E-05 , 1.800E+00 , 7.207E-06 , 5.518E-05 , 1.800E+00 
 2.092E-08 , 8.951E-06 , 1.683E-05 , 1.800E+00 , 5.052E-06 , 1.673E-05 , 1.800E+00 
 2.116E-08 , 6.153E-06 , 1.142E-05 , 1.800E+00 , 3.530E-06 , 2.644E-06 , 1.800E+00 
 2.156E-08 , 3.001E-06 , 4.622E-06 , 1.800E+00 , 2.629E-06 , 2.955E-06 , 1.800E+00 
 2.209E-08 , 1.510E-06 , 1.651E-06 , 1.800E+00 , 1.458E-06 , 3.360E-06 , 1.800E+00 
 2.280E-08 , 1.210E-06 , 1.347E-06 , 1.800E+00 , 1.155E-06 , 9.678E-07 , 1.800E+00 
 2.390E-08 , 7.435E-07 , 8.717E-07 , 1.800E+00 , 6.823E-07 ,-2.293E-07 , 1.800E+00 
 2.510E-08 , 5.360E-07 , 5.944E-07 , 1.800E+00 , 5.087E-07 ,-6.685E-08 , 1.800E+00 
 2.511E-08 , 6.758E-02 , 8.052E-04 , 1.800E+00 , 2.329E-05 , 7.691E-06 , 1.800E+00 
 2.512E-08 , 1.515E-01 , 1.214E-03 , 1.800E+00 , 3.960E-05 , 1.815E-05 , 1.800E+00 
 2.512E-08 , 2.544E-01 , 1.176E-03 , 1.800E+00 , 4.733E-05 , 3.178E-05 , 1.800E+00 
 2.514E-08 , 4.125E-01 , 8.976E-04 , 1.800E+00 , 4.870E-05 , 5.238E-05 , 1.800E+00 
 2.515E-08 , 5.755E-01 , 7.928E-04 , 1.800E+00 , 3.287E-05 , 7.374E-05 , 1.800E+00 
 2.516E-08 , 6.957E-01 , 7.580E-04 , 1.800E+00 ,-5.021E-05 , 8.954E-05 , 1.800E+00 
 2.517E-08 , 8.161E-01 , 6.252E-04 , 1.800E+00 ,-2.679E-04 , 1.032E-04 , 1.800E+00 
 2.518E-08 , 9.212E-01 , 4.224E-04 , 1.799E+00 ,-5.528E-04 , 1.151E-04 , 1.800E+00 
 2.519E-08 , 1.039E+00 , 2.714E-05 , 1.798E+00 ,-8.752E-04 , 1.222E-04 , 1.800E+00 
 2.520E-08 , 1.140E+00 ,-7.969E-04 , 1.797E+00 ,-1.033E-03 , 1.073E-04 , 1.800E+00 
 2.521E-08 , 1.242E+00 ,-2.335E-03 , 1.796E+00 ,-1.062E-03 , 5.655E-05 , 1.800E+00 
 2.522E-08 , 1.375E+00 ,-5.094E-03 , 1.796E+00 ,-1.003E-03 ,-7.361E-05 , 1.800E+00 
 2.523E-08 , 1.540E+00 ,-8.197E-03 , 1.796E+00 ,-8.514E-04 ,-3.203E-04 , 1.800E+00 
 2.524E-08 , 1.696E+00 ,-1.016E-02 , 1.796E+00 ,-6.798E-04 ,-6.108E-04 , 1.800E+00 
 2.525E-08 , 1.770E+00 ,-1.080E-02 , 1.796E+00 ,-6.190E-04 ,-7.587E-04 , 1.800E+00 
 2.525E-08 , 1.787E+00 ,-1.144E-02 , 1.797E+00 ,-5.971E-04 ,-8.491E-04 , 1.800E+00 
 2.526E-08 , 1.795E+00 ,-1.200E-02 , 1.797E+00 ,-5.680E-04 ,-9.396E-04 , 1.800E+00 
 2.526E-08 , 1.798E+00 ,-1.247E-02 , 1.797E+00 ,-5.185E-04 ,-1.067E-03 , 1.800E+00 
 2.527E-08 , 1.798E+00 ,-1.270E-02 , 1.797E+00 ,-4.549E-04 ,-1.270E-03 , 1.800E+00 
 2.528E-08 , 1.798E+00 ,-1.272E-02 , 1.797E+00 ,-4.285E-04 ,-1.473E-03 , 1.800E+00 
 2.529E-08 , 1.798E+00 ,-1.267E-02 , 1.797E+00 ,-4.267E-04 ,-1.765E-03 , 1.800E+00 
 2.531E-08 , 1.798E+00 ,-1.233E-02 , 1.797E+00 ,-4.402E-04 ,-2.237E-03 , 1.800E+00 
 2.534E-08 , 1.798E+00 ,-1.076E-02 , 1.797E+00 ,-4.596E-04 ,-2.605E-03 , 1.800E+00 
 2.538E-08 , 1.799E+00 ,-7.761E-03 , 1.797E+00 ,-5.148E-04 , 1.841E-04 , 1.800E+00 
 2.541E-08 , 1.799E+00 ,-5.420E-03 , 1.797E+00 ,-5.875E-04 , 1.071E-02 , 1.800E+00 
 2.545E-08 , 1.799E+00 ,-3.843E-03 , 1.797E+00 ,-5.780E-04 , 3.091E-02 , 1.800E+00 
 2.548E-08 , 1.799E+00 ,-2.547E-03 , 1.798E+00 ,-4.416E-04 , 6.187E-02 , 1.800E+00 
 2.552E-08 , 1.800E+00 ,-1.590E-03 , 1.799E+00 ,-2.751E-04 , 1.007E-01 , 1.800E+00 
 2.557E-08 , 1.800E+00 ,-8.870E-04 , 1.799E+00 ,-1.369E-04 , 1.533E-01 , 1.800E+00 
 2.562E-08 , 1.800E+00 ,-4.608E-04 , 1.800E+00 ,-5.424E-05 , 2.217E-01 , 1.800E+00 
 2.567E-08 , 1.800E+00 ,-2.720E-04 , 1.800E+00 ,-2.132E-05 , 2.927E-01 , 1.800E+00 
 2.573E-08 , 1.800E+00 ,-1.787E-04 , 1.800E+00 ,-8.452E-06 , 3.733E-01 , 1.800E+00 
 2.581E-08 , 1.800E+00 ,-1.253E-04 , 1.800E+00 ,-3.851E-06 , 4.756E-01 , 1.800E+00 
 2.592E-08 , 1.800E+00 ,-8.733E-05 , 1.800E+00 ,-2.295E-06 , 6.278E-01 , 1.800E+00 
 2.606E-08 , 1.800E+00 ,-6.152E-05 , 1.800E+00 ,-1.761E-06 , 8.177E-01 , 1.800E+00 
 2.631E-08 , 1.800E+00 ,-4.009E-05 , 1.800E+00 ,-8.524E-07 , 1.120E+00 , 1.800E+00 
 2.646E-08 , 1.800E+00 ,-3.285E-05 , 1.800E+00 ,-8.552E-07 , 1.283E+00 , 1.800E+00 
 2.661E-08 , 1.800E+00 ,-2.562E-05 , 1.800E+00 ,-8.580E-07 , 1.420E+00 , 1.800E+00 
 2.683E-08 , 1.800E+00 ,-2.386E-05 , 1.800E+00 ,-8.620E-07 , 1.568E+00 , 1.800E+00 
 2.714E-08 , 1.800E+00 ,-2.131E-05 , 1.800E+00 ,-1.481E-06 , 1.696E+00 , 1.800E+00 
 2.746E-08 , 1.800E+00 ,-1.553E-05 , 1.800E+00 ,-1.016E-06 , 1.758E+00 , 1.800E+00 
 2.775E-08 , 1.800E+00 ,-1.172E-05 , 1.800E+00 ,-5.818E-07 , 1.783E+00 , 1.800E+00 
 2.810E-08 , 1.800E+00 ,-9.356E-06 , 1.800E+00 ,-5.887E-08 , 1.794E+00 , 1.800E+00 
 2.853E-08 , 1.800E+00 ,-8.040E-06 , 1.800E+00 ,-4.873E-08 , 1.798E+00 , 1.800E+00 
 2.908E-08 , 1.800E+00 ,-6.327E-06 , 1.800E+00 ,-3.551E-08 , 1.799E+00 , 1.800E+00 
 2.989E-08 , 1.800E+00 ,-5.061E-06 , 1.800E+00 ,-1.626E-08 , 1.799E+00 , 1.800E+00 
 3.010E-08 , 1.800E+00 ,-4.735E-06 , 1.800E+00 ,-1.130E-08 , 1.800E+00 , 1.800E+00 
 3.011E-08 , 1.730E+00 , 7.121E-02 , 1.800E+00 , 1.772E-05 , 1.800E+00 , 1.800E+00 
 3.012E-08 , 1.645E+00 , 1.571E-01 , 1.800E+00 , 2.918E-05 , 1.800E+00 , 1.800E+00 
 3.012E-08 , 1.529E+00 , 2.742E-01 , 1.800E+00 , 3.148E-05 , 1.800E+00 , 1.800E+00 
 3.014E-08 , 1.379E+00 , 4.247E-01 , 1.800E+00 , 2.613E-05 , 1.800E+00 , 1.800E+00 
 3.015E-08 , 1.182E+00 , 6.239E-01 , 1.800E+00 , 2.234E-05 , 1.800E+00 , 1.800E+00 
 3.017E-08 , 1.030E+00 , 7.794E-01 , 1.800E+00 , 2.074E-05 , 1.800E+00 , 1.800E+00 
 3.018E-08 , 8.772E-01 , 9.360E-01 , 1.800E+00 , 1.797E-05 , 1.800E+00 , 1.800E+00 
 3.019E-08 , 7.255E-01 , 1.092E+00 , 1.800E+00 , 1.749E-05 , 1.800E+00 , 1.800E+00 
 3.020E-08 , 5.815E-01 , 1.240E+00 , 1.800E+00 , 1.810E-05 , 1.800E+00 , 1.800E+00 
 3.022E-08 , 4.149E-01 , 1.410E+00 , 1.800E+00 , 1.190E-05 , 1.800E+00 , 1.800E+00 
 3.023E-08 , 2.256E-01 , 1.599E+00 , 1.800E+00 , 1.914E-06 , 1.800E+00 , 1.800E+00 
 3.025E-08 , 4.256E-02 , 1.777E+00 , 1.800E+00 ,-1.843E-06 , 1.800E+00 , 1.800E+00 
 3.025E-08 , 1.972E-02 , 1.795E+00 , 1.800E+00 ,-2.359E-05 , 1.800E+00 , 1.800E+00 
 3.026E-08 , 8.298E-03 , 1.801E+00 , 1.800E+00 ,-3.723E-05 , 1.800E+00 , 1.800E+00 
 3.027E-08 , 3.796E-03 , 1.802E+00 , 1.800E+00 ,-3.975E-05 , 1.800E+00 , 1.800E+00 
 3.028E-08 , 2.735E-03 , 1.801E+00 , 1.800E+00 ,-3.204E-05 , 1.800E+00 , 1.800E+00 
 3.028E-08 , 2.033E-03 , 1.800E+00 , 1.800E+00 ,-2.598E-05 , 1.800E+00 , 1.800E+00 
 3.030E-08 , 9.952E-04 , 1.800E+00 , 1.800E+00 ,-2.115E-05 , 1.800E+00 , 1.800E+00 
 3.032E-08 , 2.442E-04 , 1.800E+00 , 1.800E+00 ,-1.510E-05 , 1.800E+00 , 1.800E+00 
 3.034E-08 , 6.411E-05 , 1.800E+00 , 1.800E+00 ,-9.815E-06 , 1.800E+00 , 1.800E+00 
 3.037E-08 , 3.015E-05 , 1.800E+00 , 1.800E+00 ,-5.708E-06 , 1.800E+00 , 1.800E+00 
 3.042E-08 , 2.161E-05 , 1.800E+00 , 1.800E+00 ,-2.376E-06 , 1.800E+00 , 1.800E+00 
 3.049E-08 , 1.278E-05 , 1.800E+00 , 1.800E+00 ,-6.508E-07 , 1.800E+00 , 1.800E+00 
 3.062E-08 , 1.760E-06 , 1.800E+00 , 1.800E+00 ,-5.423E-07 , 1.800E+00 , 1.800E+00 
 3.085E-08 ,-1.067E-06 , 1.800E+00 , 1.800E+00 ,-3.535E-07 , 1.800E+00 , 1.800E+00 
 3.123E-08 , 2.492E-07 , 1.800E+00 , 1.800E+00 ,-3.015E-07 , 1.800E+00 , 1.800E+00 
 3.199E-08 , 1.979E-07 , 1.800E+00 , 1.800E+00 ,-1.976E-07 , 1.800E+00 , 1.800E+00 
 3.352E-08 , 9.517E-08 , 1.800E+00 , 1.800E+00 , 1.015E-08 , 1.800E+00 , 1.800E+00 
 3.510E-08 ,-1.138E-08 , 1.800E+00 , 1.800E+00 ,-2.305E-09 , 1.800E+00 , 1.800E+00 
 3.511E-08 , 1.340E-01 , 1.800E+00 , 1.800E+00 , 6.773E-06 , 1.800E+00 , 1.800E+00 
 3.513E-08 , 2.898E-01 , 1.800E+00 , 1.800E+00 , 6.603E-06 , 1.800E+00 , 1.800E+00 
 3.514E-08 , 4.586E-01 , 1.800E+00 , 1.800E+00 , 4.959E-06 , 1.800E+00 , 1.800E+00 
 3.516E-08 , 6.622E-01 , 1.800E+00 , 1.800E+00 , 6.371E-06 , 1.800E+00 , 1.800E+00 
 3.518E-08 , 9.613E-01 , 1.800E+00 , 1.800E+00 , 4.169E-06 , 1.800E+00 , 1.800E+00 
 3.522E-08 , 1.384E+00 , 1.801E+00 , 1.800E+00 ,-5.037E-07 , 1.800E+00 , 1.800E+00 
 3.525E-08 , 1.773E+00 , 1.801E+00 , 1.800E+00 ,-1.491E-06 , 1.800E+00 , 1.800E+00 
 3.526E-08 , 1.795E+00 , 1.800E+00 , 1.800E+00 ,-1.184E-05 , 1.800E+00 , 1.800E+00 
 3.527E-08 , 1.801E+00 , 1.800E+00 , 1.800E+00 ,-1.026E-05 , 1.800E+00 , 1.800E+00 
 3.528E-08 , 1.800E+00 , 1.800E+00 , 1.800E+00 ,-4.822E-06 , 1.800E+00 , 1.800E+00 
 3.530E-08 , 1.800E+00 , 1.800E+00 , 1.800E+00 ,-2.388E-06 , 1.800E+00 , 1.800E+00 
 3.532E-08 , 1.800E+00 , 1.800E+00 , 1.800E+00 ,-1.903E-06 , 1.800E+00 , 1.800E+00 
 3.536E-08 , 1.800E+00 , 1.800E+00 , 1.800E+00 ,-9.352E-07 , 1.800E+00 , 1.800E+00 
 3.544E-08 , 1.800E+00 , 1.800E+00 , 1.800E+00 , 1.005E-08 , 1.800E+00 , 1.800E+00 
 3.558E-08 , 1.800E+00 , 1.800E+00 , 1.800E+00 ,-6.537E-08 , 1.800E+00 , 1.800E+00 
 3.587E-08 , 1.800E+00 , 1.800E+00 , 1.800E+00 ,-2.162E-07 , 1.800E+00 , 1.800E+00 
 3.644E-08 , 1.800E+00 , 1.800E+00 , 1.800E+00 ,-1.377E-07 , 1.800E+00 , 1.800E+00 
 3.759E-08 , 1.800E+00 , 1.800E+00 , 1.800E+00 , 1.942E-08 , 1.800E+00 , 1.800E+00 
 4.010E-08 , 1.800E+00 , 1.800E+00 , 1.800E+00 ,-2.843E-09 , 1.800E+00 , 1.800E+00 
 4.011E-08 , 1.730E+00 , 1.729E+00 , 1.729E+00 , 6.497E-02 , 1.800E+00 , 1.800E+00 
 4.012E-08 , 1.645E+00 , 1.643E+00 , 1.644E+00 , 1.464E-01 , 1.800E+00 , 1.800E+00 
 4.012E-08 , 1.542E+00 , 1.540E+00 , 1.541E+00 , 2.489E-01 , 1.800E+00 , 1.800E+00 
 4.014E-08 , 1.397E+00 , 1.395E+00 , 1.396E+00 , 3.940E-01 , 1.800E+00 , 1.800E+00 
 4.015E-08 , 1.228E+00 , 1.226E+00 , 1.228E+00 , 5.633E-01 , 1.800E+00 , 1.800E+00 
 4.017E-08 , 9.427E-01 , 9.377E-01 , 9.411E-01 , 8.510E-01 , 1.800E+00 , 1.800E+00 
 4.019E-08 , 7.430E-01 , 7.377E-01 , 7.376E-01 , 1.054E+00 , 1.800E+00 , 1.800E+00 
 4.021E-08 , 5.420E-01 , 5.376E-01 , 5.327E-01 , 1.259E+00 , 1.801E+00 , 1.800E+00 
 4.022E-08 , 3.581E-01 , 3.551E-01 , 3.480E-01 , 1.446E+00 , 1.801E+00 , 1.800E+00 
 4.024E-08 , 1.476E-01 , 1.464E-01 , 1.381E-01 , 1.658E+00 , 1.802E+00 , 1.800E+00 
 4.025E-08 , 3.387E-02 , 3.332E-02 , 2.470E-02 , 1.773E+00 , 1.803E+00 , 1.800E+00 
 4.026E-08 , 1.172E-02 , 1.349E-02 , 4.701E-03 , 1.793E+00 , 1.803E+00 , 1.800E+00 
 4.026E-08 , 2.484E-03 , 5.866E-03 ,-2.392E-03 , 1.801E+00 , 1.803E+00 , 1.800E+00 
 4.027E-08 , 4.211E-04 , 4.430E-03 ,-2.456E-03 , 1.802E+00 , 1.804E+00 , 1.800E+00 
 4.028E-08 , 9.600E-04 , 4.651E-03 ,-7.720E-05 , 1.801E+00 , 1.805E+00 , 1.800E+00 
 4.029E-08 , 9.480E-04 , 4.287E-03 , 9.838E-04 , 1.801E+00 , 1.805E+00 , 1.800E+00 
 4.031E-08 , 5.990E-04 , 3.790E-03 , 1.735E-03 , 1.802E+00 , 1.805E+00 , 1.800E+00 
 4.033E-08 , 4.803E-04 , 3.708E-03 , 2.549E-03 , 1.801E+00 , 1.802E+00 , 1.800E+00 
 4.036E-08 , 6.799E-04 , 3.846E-03 , 6.752E-03 , 1.801E+00 , 1.789E+00 , 1.800E+00 
 4.040E-08 , 1.071E-03 , 4.178E-03 , 8.149E-03 , 1.802E+00 , 1.760E+00 , 1.800E+00 
 4.043E-08 , 1.129E-03 , 3.929E-03 , 7.438E-03 , 1.802E+00 , 1.728E+00 , 1.800E+00 
 4.046E-08 , 1.010E-03 , 3.459E-03 , 6.557E-03 , 1.802E+00 , 1.689E+00 , 1.800E+00 
 4.049E-08 , 8.852E-04 , 3.049E-03 , 5.536E-03 , 1.801E+00 , 1.642E+00 , 1.800E+00 
 4.052E-08 , 7.884E-04 , 2.640E-03 , 4.394E-03 , 1.801E+00 , 1.583E+00 , 1.800E+00 
 4.058E-08 , 6.288E-04 , 1.957E-03 , 2.953E-03 , 1.801E+00 , 1.480E+00 , 1.800E+00 
 4.065E-08 , 4.210E-04 , 1.237E-03 , 1.816E-03 , 1.800E+00 , 1.347E+00 , 1.800E+00 
 4.071E-08 , 2.651E-04 , 7.655E-04 , 1.130E-03 , 1.800E+00 , 1.214E+00 , 1.800E+00 
 4.079E-08 , 1.397E-04 , 3.990E-04 , 5.867E-04 , 1.800E+00 , 1.034E+00 , 1.800E+00 
 4.090E-08 , 6.403E-05 , 1.772E-04 , 2.544E-04 , 1.800E+00 , 8.064E-01 , 1.800E+00 
 4.103E-08 , 2.821E-05 , 7.405E-05 , 1.037E-04 , 1.800E+00 , 5.479E-01 , 1.800E+00 
 4.118E-08 , 1.593E-05 , 4.088E-05 , 5.614E-05 , 1.800E+00 , 2.906E-01 , 1.800E+00 
 4.132E-08 , 1.933E-05 , 5.356E-05 , 7.196E-05 , 1.800E+00 , 1.384E-01 , 1.800E+00 
